"Freq [GHz]","ReflectanceTE []"
30,0.997228707658421
30.01,0.997108740732143
30.02,0.996989710080927
30.03,0.996871615281256
30.04,0.996754455882914
30.05,0.996638231408967
30.06,0.996522941355639
30.07,0.996408585192317
30.08,0.996295162361421
30.09,0.996182672278366
30.1,0.996071114331516
30.11,0.995960487882094
30.12,0.995850792264167
30.13,0.995742026784557
30.14,0.995634190722778
30.15,0.995527283331035
30.16,0.995421303834119
30.17,0.995316251429404
30.18,0.995212125286763
30.19,0.995108924548573
30.2,0.995006648329616
30.21,0.994905295717078
30.22,0.994804865770502
30.23,0.994705357521741
30.24,0.994606769974974
30.25,0.994509102106591
30.26,0.994412352865238
30.27,0.994316521171753
30.28,0.994221605919153
30.29,0.994127605972601
30.3,0.994034520169401
30.31,0.993942347318965
30.32,0.993851086202806
30.33,0.993760735574539
30.34,0.993671294159819
30.35,0.993582760656378
30.36,0.993495133734013
30.37,0.993408412034549
30.38,0.993322594171886
30.39,0.993237678731936
30.4,0.993153664272698
30.41,0.993070549324173
30.42,0.992988332388478
30.43,0.99290701193975
30.44,0.992826586424222
30.45,0.992747054260206
30.46,0.992668413838133
30.47,0.992590663520537
30.48,0.992513801642122
30.49,0.992437826509721
30.5,0.992362736402381
30.51,0.992288529571376
30.52,0.992215204240181
30.53,0.992142758604591
30.54,0.992071190832699
30.55,0.992000499064946
30.56,0.991930681414136
30.57,0.991861735965553
30.58,0.991793660776899
30.59,0.99172645387842
30.6,0.991660113272928
30.61,0.991594636935859
30.62,0.991530022815291
30.63,0.991466268832056
30.64,0.991403372879764
30.65,0.991341332824856
30.66,0.991280146506698
30.67,0.991219811737614
30.68,0.991160326302994
30.69,0.99110168796131
30.7,0.991043894444233
30.71,0.99098694345669
30.72,0.990930832676946
30.73,0.990875559756691
30.74,0.990821122321106
30.75,0.990767517968942
30.76,0.99071474427265
30.77,0.990662798778425
30.78,0.990611679006317
30.79,0.990561382450334
30.8,0.990511906578511
30.81,0.990463248833053
30.82,0.990415406630375
30.83,0.990368377361289
30.84,0.990322158391022
30.85,0.990276747059389
30.86,0.990232140680888
30.87,0.990188336544784
30.88,0.990145331915276
30.89,0.990103124031581
30.9,0.99006171010806
30.91,0.990021087334341
30.92,0.989981252875462
30.93,0.989942203871981
30.94,0.989903937440101
30.95,0.989866450671813
30.96,0.989829740635054
30.97,0.989793804373799
30.98,0.989758638908232
30.99,0.989724241234866
31,0.989690608326722
31.01,0.989657737133445
31.02,0.989625624581432
31.03,0.989594267574071
31.04,0.989563662991776
31.05,0.989533807692249
31.06,0.98950469851056
31.07,0.989476332259357
31.08,0.98944870572899
31.09,0.989421815687709
31.1,0.989395658881819
31.11,0.989370232035824
31.12,0.989345531852648
31.13,0.989321555013741
31.14,0.989298298179333
31.15,0.989275757988539
31.16,0.989253931059576
31.17,0.98923281398995
31.18,0.989212403356599
31.19,0.989192695716136
31.2,0.989173687604975
31.21,0.98915537553957
31.22,0.989137756016594
31.23,0.98912082551308
31.24,0.989104580486717
31.25,0.989089017375947
31.26,0.98907413260023
31.27,0.989059922560205
31.28,0.989046383637922
31.29,0.989033512197021
31.3,0.989021304582964
31.31,0.989009757123213
31.32,0.988998866127464
31.33,0.988988627887846
31.34,0.988979038679137
31.35,0.988970094758976
31.36,0.988961792368092
31.37,0.988954127730506
31.38,0.988947097053757
31.39,0.988940696529115
31.4,0.98893492233183
31.41,0.988929770621331
31.42,0.988925237541441
31.43,0.98892131922064
31.44,0.988918011772279
31.45,0.988915311294806
31.46,0.988913213871981
31.47,0.988911715573154
31.48,0.988910812453443
31.49,0.988910500554029
31.5,0.988910775902347
31.51,0.988911634512344
31.52,0.98891307238471
31.53,0.988915085507141
31.54,0.988917669854535
31.55,0.988920821389303
31.56,0.988924536061546
31.57,0.988928809809332
31.58,0.98893363855896
31.59,0.988939018225166
31.6,0.988944944711408
31.61,0.988951413910088
31.62,0.988958421702846
31.63,0.988965963960738
31.64,0.988974036544578
31.65,0.988982635305106
31.66,0.988991756083317
31.67,0.98900139471066
31.68,0.989011547009317
31.69,0.989022208792474
31.7,0.989033375864551
31.71,0.989045044021481
31.72,0.989057209050934
31.73,0.989069866732647
31.74,0.989083012838618
31.75,0.989096643133366
31.76,0.989110753374271
31.77,0.989125339311719
31.78,0.989140396689483
31.79,0.989155921244876
31.8,0.989171908709115
31.81,0.989188354807495
31.82,0.989205255259736
31.83,0.989222605780174
31.84,0.989240402078075
31.85,0.989258639857883
31.86,0.989277314819471
31.87,0.98929642265845
31.88,0.989315959066379
31.89,0.989335919731069
31.9,0.989356300336846
31.91,0.989377096564798
31.92,0.989398304093054
31.93,0.989419918597046
31.94,0.989441935749799
31.95,0.989464351222158
31.96,0.989487160683078
31.97,0.989510359799873
31.98,0.989533944238507
31.99,0.989557909663862
32,0.989582251739945
32.01,0.989606966130233
32.02,0.989632048497892
32.03,0.989657494506062
32.04,0.989683299818087
32.05,0.989709460097808
32.06,0.989735971009862
32.07,0.98976282821986
32.08,0.989790027394705
32.09,0.989817564202882
32.1,0.989845434314628
32.11,0.98987363340231
32.12,0.989902157140566
32.13,0.989931001206683
32.14,0.989960161280765
32.15,0.989989633046019
32.16,0.990019412189062
32.17,0.990049494400116
32.18,0.990079875373272
32.19,0.990110550806793
32.2,0.990141516403316
32.21,0.990172767870154
32.22,0.990204300919501
32.23,0.990236111268734
32.24,0.990268194640634
32.25,0.990300546763631
32.26,0.99033316337211
32.27,0.990366040206568
32.28,0.990399173013955
32.29,0.990432557547861
32.3,0.990466189568799
32.31,0.990500064844434
32.32,0.990534179149794
32.33,0.990568528267593
32.34,0.990603107988416
32.35,0.990637914110938
32.36,0.990672942442251
32.37,0.990708188797995
32.38,0.990743649002699
32.39,0.990779318889943
32.4,0.990815194302598
32.41,0.990851271093107
32.42,0.990887545123689
32.43,0.99092401226655
32.44,0.990960668404145
32.45,0.990997509429396
32.46,0.991034531245892
32.47,0.991071729768163
32.48,0.991109100921878
32.49,0.991146640644032
32.5,0.991184344883258
32.51,0.991222209599923
32.52,0.991260230766471
32.53,0.991298404367548
32.54,0.991336726400249
32.55,0.991375192874345
32.56,0.991413799812455
32.57,0.991452543250312
32.58,0.991491419236902
32.59,0.991530423834735
32.6,0.991569553119998
32.61,0.991608803182792
32.62,0.99164817012733
32.63,0.991687650072098
32.64,0.991727239150098
32.65,0.991766933509044
32.66,0.991806729311511
32.67,0.99184662273515
32.68,0.991886609972925
32.69,0.991926687233198
32.7,0.991966850740011
32.71,0.992007096733249
32.72,0.992047421468772
32.73,0.992087821218646
32.74,0.99212829227133
32.75,0.992168830931788
32.76,0.992209433521738
32.77,0.992250096379788
32.78,0.992290815861604
32.79,0.992331588340094
32.8,0.992372410205549
32.81,0.992413277865858
32.82,0.992454187746601
32.83,0.992495136291289
32.84,0.992536119961457
32.85,0.992577135236834
32.86,0.99261817861554
32.87,0.992659246614178
32.88,0.992700335768029
32.89,0.992741442631192
32.9,0.992782563776704
32.91,0.992823695796719
32.92,0.992864835302629
32.93,0.992905978925209
32.94,0.992947123314748
32.95,0.992988265141211
32.96,0.99302940109434
32.97,0.993070527883808
32.98,0.993111642239326
32.99,0.993152740910796
33,0.993193820668415
33.01,0.993234878302821
33.02,0.993275910625159
33.03,0.993316914467312
33.04,0.993357886681864
33.05,0.993398824142354
33.06,0.993439723743296
33.07,0.993480582400348
33.08,0.993521397050365
33.09,0.993562164651554
33.1,0.993602882183542
33.11,0.993643546647492
33.12,0.993684155066222
33.13,0.993724704484262
33.14,0.993765191967963
33.15,0.9938056146056
33.16,0.993845969507464
33.17,0.993886253805926
33.18,0.993926464655547
33.19,0.993966599233162
33.2,0.994006654737926
33.21,0.994046628391454
33.22,0.994086517437839
33.23,0.994126319143762
33.24,0.994166030798534
33.25,0.994205649714228
33.26,0.99424517322567
33.27,0.994284598690551
33.28,0.994323923489489
33.29,0.994363145026082
33.3,0.994402260726961
33.31,0.994441268041878
33.32,0.994480164443697
33.33,0.994518947428532
33.34,0.994557614515736
33.35,0.994596163247985
33.36,0.994634591191294
33.37,0.994672895935074
33.38,0.994711075092216
33.39,0.994749126299045
33.4,0.994787047215452
33.41,0.994824835524847
33.42,0.994862488934282
33.43,0.994900005174389
33.44,0.994937381999479
33.45,0.994974617187547
33.46,0.995011708540304
33.47,0.995048653883186
33.48,0.995085451065386
33.49,0.995122097959882
33.5,0.995158592463449
33.51,0.995194932496664
33.52,0.995231116003964
33.53,0.995267140953574
33.54,0.995303005337603
33.55,0.995338707172009
33.56,0.995374244496623
33.57,0.995409615375124
33.58,0.995444817895094
33.59,0.995479850167952
33.6,0.995514710329012
33.61,0.995549396537451
33.62,0.995583906976303
33.63,0.995618239852465
33.64,0.995652393396682
33.65,0.995686365863531
33.66,0.995720155531418
33.67,0.99575376070254
33.68,0.995787179702932
33.69,0.995820410882357
33.7,0.995853452614373
33.71,0.995886303296251
33.72,0.995918961348987
33.73,0.995951425217252
33.74,0.995983693369399
33.75,0.996015764297379
33.76,0.996047636516827
33.77,0.996079308566826
33.78,0.996110779010104
33.79,0.996142046432831
33.8,0.99617310944469
33.81,0.996203966678755
33.82,0.996234616791504
33.83,0.996265058462759
33.84,0.996295290395656
33.85,0.996325311316595
33.86,0.996355119975162
33.87,0.996384715144135
33.88,0.996414095619414
33.89,0.996443260219932
33.9,0.99647220778766
33.91,0.996500937187551
33.92,0.996529447307403
33.93,0.996557737057923
33.94,0.996585805372589
33.95,0.996613651207582
33.96,0.996641273541804
33.97,0.996668671376721
33.98,0.996695843736362
33.99,0.996722789667238
34,0.996749508238272
34.01,0.996775998540715
34.02,0.996802259688126
34.03,0.996828290816243
34.04,0.996854091082945
34.05,0.99687965966817
34.06,0.996904995773872
34.07,0.996930098623864
34.08,0.996954967463843
34.09,0.996979601561231
34.1,0.997004000205156
34.11,0.997028162706322
34.12,0.997052088396941
34.13,0.997075776630706
34.14,0.997099226782615
34.15,0.997122438248943
34.16,0.997145410447165
34.17,0.997168142815824
34.18,0.997190634814472
34.19,0.9972128859236
34.2,0.997234895644507
34.21,0.997256663499224
34.22,0.997278189030438
34.23,0.997299471801364
34.24,0.997320511395706
34.25,0.997341307417492
34.26,0.997361859491047
34.27,0.997382167260857
34.28,0.997402230391458
34.29,0.997422048567368
34.3,0.99744162149299
34.31,0.99746094889249
34.32,0.997480030509708
34.33,0.997498866108021
34.34,0.997517455470319
34.35,0.997535798398819
34.36,0.997553894715018
34.37,0.997571744259548
34.38,0.997589346892076
34.39,0.997606702491236
34.4,0.997623810954483
34.41,0.997640672197987
34.42,0.997657286156527
34.43,0.997673652783397
34.44,0.99768977205028
34.45,0.997705643947133
34.46,0.997721268482105
34.47,0.997736645681383
34.48,0.997751775589117
34.49,0.997766658267258
34.5,0.997781293795512
34.51,0.997795682271159
34.52,0.997809823808984
34.53,0.997823718541143
34.54,0.997837366617034
34.55,0.997850768203207
34.56,0.997863923483235
34.57,0.997876832657573
34.58,0.997889495943487
34.59,0.997901913574899
34.6,0.997914085802288
34.61,0.997926012892531
34.62,0.997937695128848
34.63,0.997949132810622
34.64,0.997960326253311
34.65,0.997971275788332
34.66,0.997981981762893
34.67,0.99799244453994
34.68,0.99800266449795
34.69,0.998012642030911
34.7,0.998022377548124
34.71,0.998031871474069
34.72,0.998041124248351
34.73,0.99805013632553
34.74,0.998058908174998
34.75,0.99806744028084
34.76,0.998075733141786
34.77,0.998083787270972
34.78,0.998091603195912
34.79,0.998099181458311
34.8,0.998106522613967
34.81,0.998113627232657
34.82,0.998120495897979
34.83,0.998127129207239
34.84,0.99813352777135
34.85,0.998139692214645
34.86,0.99814562317484
34.87,0.998151321302799
34.88,0.998156787262509
34.89,0.998162021730907
34.9,0.998167025397717
34.91,0.9981717989654
34.92,0.998176343148975
34.93,0.99818065867589
34.94,0.998184746285944
34.95,0.998188606731084
34.96,0.998192240775364
34.97,0.998195649194731
34.98,0.998198832776973
34.99,0.998201792321541
35,0.998204528639442
35.01,0.998207042553109
35.02,0.998209334896294
35.03,0.998211406513888
35.04,0.998213258261857
35.05,0.998214891007057
35.06,0.998216305627182
35.07,0.998217503010528
35.08,0.998218484055978
35.09,0.998219249672808
35.1,0.998219800780596
35.11,0.998220138309045
35.12,0.998220263197913
35.13,0.998220176396874
35.14,0.998219878865347
35.15,0.998219371572449
35.16,0.998218655496796
35.17,0.998217731626405
35.18,0.998216600958605
35.19,0.998215264499831
35.2,0.998213723265592
35.21,0.998211978280244
35.22,0.998210030576982
35.23,0.998207881197614
35.24,0.998205531192489
35.25,0.998202981620372
35.26,0.998200233548292
35.27,0.998197288051439
35.28,0.998194146213072
35.29,0.998190809124307
35.3,0.998187277884085
35.31,0.998183553599003
35.32,0.998179637383227
35.33,0.998175530358304
35.34,0.998171233653122
35.35,0.998166748403719
35.36,0.998162075753209
35.37,0.998157216851642
35.38,0.998152172855884
35.39,0.9981469449295
35.4,0.998141534242636
35.41,0.998135941971881
35.42,0.998130169300196
35.43,0.998124217416728
35.44,0.998118087516754
35.45,0.998111780801509
35.46,0.998105298478122
35.47,0.99809864175945
35.48,0.998091811863993
35.49,0.998084810015777
35.5,0.998077637444202
35.51,0.998070295383964
35.52,0.99806278507493
35.53,0.998055107762033
35.54,0.998047264695105
35.55,0.998039257128852
35.56,0.998031086322654
35.57,0.998022753540498
35.58,0.998014260050853
35.59,0.998005607126563
35.6,0.997996796044745
35.61,0.997987828086628
35.62,0.997978704537517
35.63,0.997969426686605
35.64,0.997959995826922
35.65,0.997950413255198
35.66,0.997940680271744
35.67,0.997930798180401
35.68,0.997920768288321
35.69,0.997910591905974
35.7,0.997900270346961
35.71,0.997889804927966
35.72,0.997879196968604
35.73,0.997868447791317
35.74,0.997857558721309
35.75,0.997846531086385
35.76,0.99783536621689
35.77,0.997824065445594
35.78,0.997812630107572
35.79,0.997801061540099
35.8,0.997789361082599
35.81,0.997777530076442
35.82,0.997765569864968
35.83,0.997753481793278
35.84,0.997741267208176
35.85,0.997728927458088
35.86,0.997716463892929
35.87,0.997703877864014
35.88,0.99769117072396
35.89,0.997678343826599
35.9,0.99766539852686
35.91,0.997652336180684
35.92,0.997639158144926
35.93,0.997625865777242
35.94,0.997612460436039
35.95,0.9975989434803
35.96,0.997585316269604
35.97,0.997571580163907
35.98,0.997557736523524
35.99,0.997543786709041
36,0.997529732081164
36.01,0.997515574000679
36.02,0.997501313828366
36.03,0.99748695292484
36.04,0.997472492650538
36.05,0.997457934365588
36.06,0.99744327942974
36.07,0.997428529202252
36.08,0.997413685041806
36.09,0.997398748306479
36.1,0.997383720353543
36.11,0.997368602539465
36.12,0.997353396219831
36.13,0.997338102749183
36.14,0.997322723480994
36.15,0.997307259767582
36.16,0.997291712959978
36.17,0.997276084407916
36.18,0.997260375459685
36.19,0.997244587462073
36.2,0.997228721760294
36.21,0.997212779697898
36.22,0.997196762616686
36.23,0.997180671856631
36.24,0.997164508755798
36.25,0.997148274650296
36.26,0.997131970874138
36.27,0.997115598759205
36.28,0.997099159635175
36.29,0.99708265482943
36.3,0.997066085666976
36.31,0.997049453470369
36.32,0.997032759559666
36.33,0.997016005252303
36.34,0.996999191863085
36.35,0.996982320704019
36.36,0.996965393084372
36.37,0.996948410310461
36.38,0.996931373685678
36.39,0.996914284510393
36.4,0.996897144081848
36.41,0.99687995369414
36.42,0.996862714638128
36.43,0.996845428201359
36.44,0.996828095667999
36.45,0.996810718318783
36.46,0.996793297430943
36.47,0.996775834278111
36.48,0.996758330130312
36.49,0.99674078625385
36.5,0.996723203911244
36.51,0.99670558436119
36.52,0.996687928858507
36.53,0.996670238654015
36.54,0.996652514994525
36.55,0.996634759122781
36.56,0.99661697227736
36.57,0.996599155692643
36.58,0.996581310598721
36.59,0.996563438221402
36.6,0.996545539782058
36.61,0.996527616497659
36.62,0.996509669580647
36.63,0.996491700238902
36.64,0.996473709675725
36.65,0.996455699089705
36.66,0.996437669674713
36.67,0.996419622619844
36.68,0.99640155910936
36.69,0.996383480322615
36.7,0.996365387434053
36.71,0.996347281613075
36.72,0.996329164024061
36.73,0.996311035826302
36.74,0.996292898173908
36.75,0.996274752215781
36.76,0.99625659909563
36.77,0.996238439951797
36.78,0.996220275917305
36.79,0.996202108119768
36.8,0.996183937681373
36.81,0.996165765718774
36.82,0.996147593343136
36.83,0.99612942166
36.84,0.996111251769289
36.85,0.996093084765254
36.86,0.996074921736414
36.87,0.996056763765537
36.88,0.996038611929572
36.89,0.996020467299615
36.9,0.996002330940889
36.91,0.995984203912666
36.92,0.995966087268247
36.93,0.99594798205492
36.94,0.995929889313903
36.95,0.995911810080352
36.96,0.995893745383251
36.97,0.995875696245445
36.98,0.995857663683532
36.99,0.995839648707907
37,0.995821652322637
37.01,0.995803675525513
37.02,0.995785719307935
37.03,0.995767784654923
37.04,0.995749872545083
37.05,0.995731983950551
37.06,0.995714119836969
37.07,0.995696281163461
37.08,0.995678468882587
37.09,0.995660683940322
37.1,0.995642927276008
37.11,0.995625199822348
37.12,0.995607502505377
37.13,0.995589836244378
37.14,0.995572201951931
37.15,0.995554600533826
37.16,0.995537032889053
37.17,0.995519499909805
37.18,0.995502002481385
37.19,0.995484541482223
37.2,0.99546711778388
37.21,0.99544973225094
37.22,0.995432385741064
37.23,0.99541507910492
37.24,0.995397813186166
37.25,0.99538058882143
37.26,0.995363406840317
37.27,0.995346268065335
37.28,0.995329173311889
37.29,0.995312123388292
37.3,0.995295119095706
37.31,0.995278161228137
37.32,0.995261250572409
37.33,0.995244387908163
37.34,0.995227574007809
37.35,0.995210809636523
37.36,0.995194095552239
37.37,0.995177432505619
37.38,0.995160821240036
37.39,0.995144262491546
37.4,0.995127756988922
37.41,0.995111305453563
37.42,0.995094908599544
37.43,0.995078567133568
37.44,0.995062281754968
37.45,0.995046053155668
37.46,0.995029882020212
37.47,0.995013769025702
37.48,0.994997714841829
37.49,0.994981720130846
37.5,0.994965785547554
37.51,0.994949911739284
37.52,0.994934099345887
37.53,0.994918348999759
37.54,0.994902661325783
37.55,0.994887036941367
37.56,0.994871476456395
37.57,0.994855980473226
37.58,0.994840549586709
37.59,0.994825184384195
37.6,0.994809885445436
37.61,0.994794653342696
37.62,0.994779488640671
37.63,0.994764391896508
37.64,0.99474936365981
37.65,0.994734404472595
37.66,0.994719514869344
37.67,0.994704695376968
37.68,0.994689946514794
37.69,0.994675268794578
37.7,0.994660662720538
37.71,0.994646128789278
37.72,0.99463166748985
37.73,0.994617279303712
37.74,0.994602964704774
37.75,0.994588724159343
37.76,0.994574558126174
37.77,0.994560467056446
37.78,0.994546451393746
37.79,0.994532511574135
37.8,0.994518648026071
37.81,0.994504861170459
37.82,0.994491151420666
37.83,0.994477519182473
37.84,0.994463964854133
37.85,0.994450488826347
37.86,0.994437091482273
37.87,0.99442377319754
37.88,0.994410534340241
37.89,0.994397375270956
37.9,0.994384296342747
37.91,0.994371297901163
37.92,0.994358380284263
37.93,0.994345543822601
37.94,0.994332788839262
37.95,0.994320115649852
37.96,0.994307524562505
37.97,0.994295015877903
37.98,0.994282589889291
37.99,0.994270246882478
38,0.99425798713584
38.01,0.994245810920351
38.02,0.994233718499572
38.03,0.994221710129698
38.04,0.994209786059526
38.05,0.994197946530503
38.06,0.99418619177672
38.07,0.994174522024922
38.08,0.994162937494578
38.09,0.994151438397791
38.1,0.994140024939404
38.11,0.99412869731697
38.12,0.9941174557208
38.13,0.994106300333944
38.14,0.994095231332215
38.15,0.994084248884221
38.16,0.994073353151389
38.17,0.994062544287936
38.18,0.99405182244096
38.19,0.994041187750353
38.2,0.994030640348959
38.21,0.994020180362458
38.22,0.994009807909494
38.23,0.993999523101573
38.24,0.993989326043214
38.25,0.993979216831881
38.26,0.993969195558054
38.27,0.993959262305239
38.28,0.993949417149887
38.29,0.99393966016162
38.3,0.993929991403074
38.31,0.993920410930005
38.32,0.993910918791319
38.33,0.993901515028978
38.34,0.993892199678211
38.35,0.993882972767406
38.36,0.993873834318157
38.37,0.993864784345312
38.38,0.993855822856975
