"Freq [GHz]","AbsorbanceTE []"
30,0.0253168427851772
30.01,0.0253125001368916
30.02,0.0253082982023649
30.03,0.0253042350054568
30.04,0.0253003085682352
30.05,0.0252965169111312
30.06,0.0252928580530533
30.07,0.0252893300115121
30.08,0.0252859308027459
30.09,0.0252826584418713
30.1,0.0252795109430012
30.11,0.0252764863193649
30.12,0.0252735825834324
30.13,0.0252707977470722
30.14,0.025268129821613
30.15,0.0252655768180607
30.16,0.0252631367471389
30.17,0.0252608076194755
30.18,0.025258587445688
30.19,0.0252564742365272
30.2,0.0252544660029963
30.21,0.0252525607564826
30.22,0.0252507565088708
30.23,0.0252490512726449
30.24,0.0252474430610834
30.25,0.0252459298882699
30.26,0.0252445097693207
30.27,0.0252431807204517
30.28,0.0252419407590968
30.29,0.0252407879040322
30.3,0.0252397201755117
30.31,0.0252387355953843
30.32,0.0252378321871707
30.33,0.0252370079762489
30.34,0.0252362609899014
30.35,0.0252355892574724
30.36,0.0252349908104993
30.37,0.0252344636827673
30.38,0.0252340059104754
30.39,0.0252336155323373
30.4,0.025233290589686
30.41,0.0252330291265925
30.42,0.0252328291899798
30.43,0.0252326888297244
30.44,0.0252326060987949
30.45,0.0252325790533097
30.46,0.0252326057526961
30.47,0.0252326842597811
30.48,0.0252328126408876
30.49,0.0252329889659724
30.5,0.0252332113086898
30.51,0.0252334777465435
30.52,0.025233786360952
30.53,0.0252341352373812
30.54,0.0252345224654288
30.55,0.0252349461389537
30.56,0.0252354043561531
30.57,0.0252358952196604
30.58,0.0252364168366663
30.59,0.0252369673190281
30.6,0.0252375447833295
30.61,0.0252381473510191
30.62,0.0252387731484863
30.63,0.0252394203071655
30.64,0.0252400869636269
30.65,0.0252407712596905
30.66,0.025241471342503
30.67,0.0252421853646374
30.68,0.0252429114841829
30.69,0.0252436478648475
30.7,0.0252443926760444
30.71,0.0252451440930023
30.72,0.0252459002967937
30.73,0.0252466594745318
30.74,0.0252474198193331
30.75,0.0252481795305333
30.76,0.025248936813638
30.77,0.0252496898805699
30.78,0.0252504369496011
30.79,0.0252511762455297
30.8,0.0252519059997462
30.81,0.025252624450299
30.82,0.02525332984201
30.83,0.0252540204265113
30.84,0.0252546944623713
30.85,0.0252553502151549
30.86,0.0252559859574849
30.87,0.0252565999691782
30.88,0.0252571905372526
30.89,0.0252577559560567
30.9,0.0252582945273087
30.91,0.0252588045602246
30.92,0.0252592843715357
30.93,0.025259732285581
30.94,0.0252601466344176
30.95,0.025260525757844
30.96,0.0252608680034885
30.97,0.0252611717268847
30.98,0.0252614352915463
30.99,0.0252616570690288
31,0.0252618354389932
31.01,0.0252619687892771
31.02,0.0252620555159928
31.03,0.0252620940235369
31.04,0.0252620827246913
31.05,0.0252620200406773
31.06,0.0252619044012345
31.07,0.0252617342446591
31.08,0.0252615080178861
31.09,0.0252612241765672
31.1,0.0252608811850596
31.11,0.0252604775165705
31.12,0.0252600116531624
31.13,0.0252594820858494
31.14,0.0252588873146147
31.15,0.02525822584849
31.16,0.025257496205634
31.17,0.0252566969133018
31.18,0.0252558265080259
31.19,0.0252548835355629
31.2,0.0252538665510019
31.21,0.0252527741187921
31.22,0.0252516048127889
31.23,0.0252503572163626
31.24,0.0252490299223438
31.25,0.0252476215331836
31.26,0.0252461306609149
31.27,0.0252445559272352
31.28,0.0252428959635841
31.29,0.025241149411105
31.3,0.0252393149207764
31.31,0.0252373911534232
31.32,0.0252353767797316
31.33,0.0252332704803391
31.34,0.0252310709458373
31.35,0.0252287768768544
31.36,0.0252263869840292
31.37,0.0252238999881381
31.38,0.0252213146200554
31.39,0.0252186296208343
31.4,0.0252158437417401
31.41,0.025212955744265
31.42,0.0252099644001804
31.43,0.0252068684915899
31.44,0.0252036668109159
31.45,0.0252003581609669
31.46,0.0251969413549752
31.47,0.0251934152166015
31.48,0.0251897785800008
31.49,0.0251860302898097
31.5,0.0251821692012079
31.51,0.0251781941799474
31.52,0.0251741041023588
31.53,0.025169897855403
31.54,0.0251655743366873
31.55,0.0251611324544657
31.56,0.0251565711277275
31.57,0.0251518892861645
31.58,0.0251470858701986
31.59,0.0251421598310568
31.6,0.0251371101307262
31.61,0.0251319357420158
31.62,0.0251266356485668
31.63,0.0251212088448923
31.64,0.0251156543363423
31.65,0.025109971139201
31.66,0.0251041582806244
31.67,0.025098214798734
31.68,0.0250921397425732
31.69,0.0250859321721408
31.7,0.0250795911584364
31.71,0.0250731157834266
31.72,0.0250665051401132
31.73,0.0250597583324842
31.74,0.0250528744755769
31.75,0.025045852695476
31.76,0.0250386921293115
31.77,0.0250313919253009
31.78,0.0250239512427001
31.79,0.0250163692518839
31.8,0.0250086451343215
31.81,0.0250007780825625
31.82,0.0249927673002777
31.83,0.0249846120022766
31.84,0.0249763114144615
31.85,0.0249678647738805
31.86,0.024959271328731
31.87,0.0249505303382999
31.88,0.0249416410730741
31.89,0.0249326028146556
31.9,0.0249234148558003
31.91,0.0249140765004251
31.92,0.0249045870635893
31.93,0.02489494587151
31.94,0.0248851522615338
31.95,0.0248752055822061
31.96,0.0248651051931796
31.97,0.0248548504652845
31.98,0.0248444407804845
31.99,0.0248338755318873
32,0.0248231541237643
32.01,0.0248122759715016
32.02,0.0248012405016184
32.03,0.0247900471517597
32.04,0.0247786953707196
32.05,0.024767184618382
32.06,0.0247555143657378
32.07,0.0247436840948844
32.08,0.0247316932990344
32.09,0.0247195414824524
32.1,0.0247072281605042
32.11,0.0246947528596051
32.12,0.0246821151172328
32.13,0.0246693144819181
32.14,0.0246563505132162
32.15,0.0246432227817117
32.16,0.0246299308689896
32.17,0.0246164743676358
32.18,0.0246028528812461
32.19,0.0245890660243429
32.2,0.0245751134224316
32.21,0.02456099471197
32.22,0.024546709540306
32.23,0.0245322575657281
32.24,0.0245176384574165
32.25,0.0245028518954067
32.26,0.0244878975706104
32.27,0.0244727751847754
32.28,0.0244574844504952
32.29,0.0244420250911337
32.3,0.0244263968408468
32.31,0.0244105994445785
32.32,0.0243946326580045
32.33,0.0243784962475141
32.34,0.0243621899902068
32.35,0.0243457136738804
32.36,0.0243290670969738
32.37,0.0243122500685615
32.38,0.0242952624083411
32.39,0.0242781039465909
32.4,0.024260774524187
32.41,0.0242432739924917
32.42,0.0242256022134388
32.43,0.024207759059415
32.44,0.0241897444132891
32.45,0.0241715581683882
32.46,0.0241532002284141
32.47,0.0241346705074792
32.48,0.0241159689300657
32.49,0.0240970954309626
32.5,0.0240780499552659
32.51,0.0240588324583552
32.52,0.0240394429058665
32.53,0.0240198812736193
32.54,0.024000147547643
32.55,0.0239802417241222
32.56,0.0239601638093504
32.57,0.0239399138197368
32.58,0.0239194917817303
32.59,0.0238988977318301
32.6,0.0238781317165287
32.61,0.0238571937922548
32.62,0.0238360840254224
32.63,0.0238148024923136
32.64,0.0237933492790705
32.65,0.023771724481673
32.66,0.0237499282059097
32.67,0.0237279605673267
32.68,0.0237058216911704
32.69,0.0236835117124206
32.7,0.0236610307756897
32.71,0.0236383790351918
32.72,0.0236155566547606
32.73,0.0235925638077502
32.74,0.0235694006770283
32.75,0.0235460674549309
32.76,0.0235225643432317
32.77,0.0234988915530949
32.78,0.0234750493050355
32.79,0.0234510378288851
32.8,0.0234268573637754
32.81,0.0234025081580339
32.82,0.0233779904692195
32.83,0.0233533045640361
32.84,0.0233284507182924
32.85,0.0233034292168983
32.86,0.0232782403537733
32.87,0.0232528844318494
32.88,0.0232273617629916
32.89,0.0232016726679755
32.9,0.0231758174764681
32.91,0.0231497965269229
32.92,0.0231236101666044
32.93,0.0230972587514937
32.94,0.0230707426462735
32.95,0.0230440622242881
32.96,0.0230172178674727
32.97,0.0229902099663206
32.98,0.0229630389198462
32.99,0.022935705135554
33,0.022908209029347
33.01,0.0228805510255169
33.02,0.0228527315567167
33.03,0.0228247510638434
33.04,0.0227966099960661
33.05,0.0227683088107627
33.06,0.0227398479734185
33.07,0.0227112279576612
33.08,0.0226824492451515
33.09,0.0226535123255618
33.1,0.0226244176965397
33.11,0.0225951658636326
33.12,0.022565757340244
33.13,0.0225361926476001
33.14,0.0225064723147026
33.15,0.0224765968782625
33.16,0.022446566882664
33.17,0.0224163828799054
33.18,0.0223860454295616
33.19,0.0223555550987083
33.2,0.0223249124619271
33.21,0.0222941181011889
33.22,0.0222631726058411
33.23,0.0222320765725698
33.24,0.0222008306052957
33.25,0.0221694353151841
33.26,0.0221378913205531
33.27,0.0221061992468358
33.28,0.0220743597265468
33.29,0.0220423733991815
33.3,0.0220102409112087
33.31,0.0219779629160161
33.32,0.0219455400738267
33.33,0.0219129730516876
33.34,0.0218802625233783
33.35,0.021847409169364
33.36,0.021814413676796
33.37,0.0217812767393698
33.38,0.0217479990573523
33.39,0.0217145813374697
33.4,0.0216810242929064
33.41,0.0216473286431886
33.42,0.0216134951141885
33.43,0.0215795244380531
33.44,0.0215454173531215
33.45,0.0215111746039056
33.46,0.0214767969410194
33.47,0.0214422851211234
33.48,0.0214076399068914
33.49,0.0213728620669175
33.5,0.0213379523756835
33.51,0.0213029116135176
33.52,0.0212677405665121
33.53,0.0212324400264806
33.54,0.0211970107908974
33.55,0.0211614536628496
33.56,0.0211257694509797
33.57,0.0210899589694238
33.58,0.0210540230377613
33.59,0.0210179624809369
33.6,0.0209817781292635
33.61,0.0209454708182871
33.62,0.0209090413887986
33.63,0.0208724906867256
33.64,0.0208358195631031
33.65,0.0207990288740229
33.66,0.0207621194805708
33.67,0.0207250922487365
33.68,0.0206879480494057
33.69,0.0206506877582814
33.7,0.020613312255829
33.71,0.0205758224272086
33.72,0.020538219162226
33.73,0.0205005033552907
33.74,0.0204626759053234
33.75,0.0204247377157415
33.76,0.0203866896943667
33.77,0.0203485327533859
33.78,0.0203102678092659
33.79,0.020271895782753
33.8,0.0202334175987489
33.81,0.0201948341862987
33.82,0.0201561464785232
33.83,0.0201173554125381
33.84,0.0200784619294303
33.85,0.0200394669741609
33.86,0.0200003714955589
33.87,0.0199611764462232
33.88,0.0199218827824573
33.89,0.019882491464253
33.9,0.0198430034552036
33.91,0.019803419722434
33.92,0.0197637412365754
33.93,0.0197239689716922
33.94,0.0196841039052016
33.95,0.0196441470178729
33.96,0.0196040992936966
33.97,0.0195639617198782
33.98,0.0195237352867627
33.99,0.0194834209877873
34,0.0194430198193841
34.01,0.0194025327809872
34.02,0.0193619608749275
34.03,0.0193213051063554
34.04,0.0192805664832643
34.05,0.0192397460163383
34.06,0.0191988447189521
34.07,0.0191578636071226
34.08,0.0191168036993701
34.09,0.0190756660167608
34.1,0.0190344515827945
34.11,0.0189931614233592
34.12,0.0189517965666307
34.13,0.0189103580431261
34.14,0.0188688468855044
34.15,0.0188272641286186
34.16,0.0187856108094037
34.17,0.0187438879668189
34.18,0.0187020966418371
34.19,0.0186602378773357
34.2,0.0186183127180338
34.21,0.0185763222105
34.22,0.0185342674030062
34.23,0.0184921493455731
34.24,0.0184499690897988
34.25,0.0184077276888973
34.26,0.0183654261975796
34.27,0.0183230656720365
34.28,0.0182806471698476
34.29,0.0182381717499652
34.3,0.0181956404726121
34.31,0.0181530543992594
34.32,0.0181104145925398
34.33,0.0180677221162273
34.34,0.0180249780351405
34.35,0.017982183415131
34.36,0.0179393393229869
34.37,0.0178964468263955
34.38,0.0178535069938812
34.39,0.0178105208947487
34.4,0.0177674895990364
34.41,0.017724414177463
34.42,0.0176812957013485
34.43,0.0176381352425767
34.44,0.0175949338735343
34.45,0.017551692667068
34.46,0.0175084126964028
34.47,0.0174650950351182
34.48,0.0174217407570685
34.49,0.0173783509363459
34.5,0.0173349266471919
34.51,0.0172914689639974
34.52,0.0172479789612028
34.53,0.0172044577132584
34.54,0.0171609062945812
34.55,0.0171173257794829
34.56,0.0170737172421211
34.57,0.0170300817564534
34.58,0.0169864203961707
34.59,0.0169427342346682
34.6,0.0168990243449488
34.61,0.0168552917996212
34.62,0.0168115376708021
34.63,0.0167677630301004
34.64,0.0167239689485416
34.65,0.0166801564965138
34.66,0.0166363267437251
34.67,0.0165924807591563
34.68,0.0165486196109903
34.69,0.0165047443665949
34.7,0.0164608560924047
34.71,0.0164169558539501
34.72,0.0163730447157663
34.73,0.0163291237413138
34.74,0.0162851939929967
34.75,0.0162412565320559
34.76,0.0161973124185135
34.77,0.0161533627111954
34.78,0.016109408467577
34.79,0.0160654507438344
34.8,0.0160214905947186
34.81,0.0159775290735348
34.82,0.0159335672321097
34.83,0.0158896061207138
34.84,0.0158456467880195
34.85,0.0158016902810743
34.86,0.0157577376452167
34.87,0.0157137899240736
34.88,0.0156698481594497
34.89,0.0156259133913306
34.9,0.0155819866578398
34.91,0.0155380689951414
34.92,0.015494161437446
34.93,0.0154502650169237
34.94,0.0154063807636791
34.95,0.01536250970571
34.96,0.0153186528688506
34.97,0.0152748112767047
34.98,0.0152309859506554
34.99,0.0151871779097545
35,0.0151433881707317
35.01,0.0150996177479206
35.02,0.0150558676532108
35.03,0.0150121388960289
35.04,0.0149684324832666
35.05,0.0149247494192494
35.06,0.0148810907056961
35.07,0.0148374573416821
35.08,0.014793850323547
35.09,0.0147502706449467
35.1,0.0147067192966852
35.11,0.0146631972668101
35.12,0.0146197055404619
35.13,0.0145762450998789
35.14,0.0145328169243498
35.15,0.0144894219901721
35.16,0.0144460612706122
35.17,0.0144027357358559
35.18,0.0143594463529686
35.19,0.0143161940858892
35.2,0.0142729798953178
35.21,0.0142298047387807
35.22,0.0141866695704692
35.23,0.014143575341298
35.24,0.0141005229988095
35.25,0.0140575134871824
35.26,0.0140145477471497
35.27,0.0139716267159838
35.28,0.0139287513274443
35.29,0.0138859225117589
35.3,0.0138431411955827
35.31,0.013800408301942
35.32,0.0137577247502229
35.33,0.0137150914561165
35.34,0.0136725093316089
35.35,0.0136299792849169
35.36,0.013587502220447
35.37,0.0135450790388092
35.38,0.0135027106367285
35.39,0.0134603979070409
35.4,0.013418141738649
35.41,0.0133759430165035
35.42,0.0133338026215245
35.43,0.0132917214306556
35.44,0.0132497003167228
35.45,0.013207740148478
35.46,0.013165841790558
35.47,0.0131240061034273
35.48,0.0130822339433606
35.49,0.0130405261624089
35.5,0.01299888360838
35.51,0.0129573071247824
35.52,0.0129157975508366
35.53,0.0128743557213926
35.54,0.0128329824669585
35.55,0.0127916786136079
35.56,0.012750444983014
35.57,0.012709282392374
35.58,0.0126681916544161
35.59,0.0126271735773388
35.6,0.0125862289648022
35.61,0.0125453586158956
35.62,0.0125045633251279
35.63,0.0124638438823726
35.64,0.0124232010728703
35.65,0.0123826356771678
35.66,0.0123421484711259
35.67,0.012301740225886
35.68,0.0122614117078338
35.69,0.0122211636785925
35.7,0.0121809968949766
35.71,0.0121409121089789
35.72,0.0121009100677654
35.73,0.0120609915136359
35.74,0.0120211571839807
35.75,0.011981407811288
35.76,0.0119417441231404
35.77,0.011902166842115
35.78,0.0118626766858582
35.79,0.0118232743670101
35.8,0.0117839605931698
35.81,0.0117447360669392
35.82,0.0117056014858227
35.83,0.011666557542287
35.84,0.0116276049236722
35.85,0.011588744312221
35.86,0.0115499763850557
35.87,0.0115113018141212
35.88,0.0114727212662187
35.89,0.0114342354029408
35.9,0.0113958448807071
35.91,0.0113575503507007
35.92,0.0113193524588691
35.93,0.0112812518459264
35.94,0.0112432491472947
35.95,0.0112053449931445
35.96,0.011167540008337
35.97,0.0111298348124133
35.98,0.0110922300196015
35.99,0.0110547262387934
36,0.011017324073534
36.01,0.0109800241219937
36.02,0.0109428269769745
36.03,0.0109057332258865
36.04,0.0108687434507297
36.05,0.0108318582281164
36.06,0.0107950781292058
36.07,0.0107584037197589
36.08,0.0107218355600553
36.09,0.0106853742049374
36.1,0.0106490202037994
36.11,0.0106127741005285
36.12,0.0105766364335481
36.13,0.0105406077357995
36.14,0.0105046885347093
36.15,0.0104688793522031
36.16,0.0104331807046821
36.17,0.0103975931030467
36.18,0.0103621170526534
36.19,0.0103267530533171
36.2,0.0102915015993308
36.21,0.010256363179423
36.22,0.0102213382767825
36.23,0.0101864273690248
36.24,0.0101516309282251
36.25,0.010116949420872
36.26,0.0100823833079016
36.27,0.0100479330446493
36.28,0.0100135990809105
36.29,0.00997938186086123
36.3,0.00994528182312371
36.31,0.00991129940072699
36.32,0.00987743502111071
36.33,0.00984368910612898
36.34,0.00981006207203361
36.35,0.0097765543295123
36.36,0.00974316628364014
36.37,0.00970989833390956
36.38,0.00967675087422248
36.39,0.00964372429290128
36.4,0.00961081897265537
36.41,0.00957803529062884
36.42,0.00954537361836716
36.43,0.00951283432185135
36.44,0.00948041776145503
36.45,0.00944812429199893
36.46,0.00941595426270603
36.47,0.00938390801724065
36.48,0.00935198589369379
36.49,0.00932018822460556
36.5,0.00928851533693376
36.51,0.00925696755210403
36.52,0.00922554518597274
36.53,0.00919424854886663
36.54,0.00916307794556714
36.55,0.00913203367533211
36.56,0.00910111603187413
36.57,0.00907032530342511
36.58,0.00903966177265725
36.59,0.00900912571677803
36.6,0.00897871740747425
36.61,0.00894843711095406
36.62,0.00891828508795323
36.63,0.00888826159372791
36.64,0.00885836687807295
36.65,0.00882860118532658
36.66,0.00879896475440123
36.67,0.00876945781877037
36.68,0.00874008060647569
36.69,0.0087108333401581
36.7,0.00868171623705993
36.71,0.00865272950903029
36.72,0.00862387336254444
36.73,0.00859514799871774
36.74,0.00856655361330549
36.75,0.00853809039673248
36.76,0.00850975853409364
36.77,0.00848155820515828
36.78,0.00845348958442782
36.79,0.0084255528410998
36.8,0.00839774813908467
36.81,0.00837007563707859
36.82,0.00834253548849873
36.83,0.0083151278415653
36.84,0.00828785283925815
36.85,0.00826071061938205
36.86,0.00823370131457135
36.87,0.00820682505228509
36.88,0.00818008195484055
36.89,0.00815347213942441
36.9,0.00812699571812481
36.91,0.00810065279792394
36.92,0.00807444348073438
36.93,0.00804836786341812
36.94,0.00802242603778758
36.95,0.00799661809064967
36.96,0.00797094410379995
36.97,0.00794540415405975
36.98,0.00791999831329249
36.99,0.00789472664841828
37,0.00786958922142755
37.01,0.00784458608942817
37.02,0.0078197173046437
37.03,0.00779498291442615
37.04,0.00777038296130761
37.05,0.00774591748301745
37.06,0.00772158651245269
37.07,0.00769739007778403
37.08,0.0076733282023993
37.09,0.00764940090498789
37.1,0.00762560819952895
37.11,0.00760195009532416
37.12,0.00757842659700581
37.13,0.00755503770459698
37.14,0.00753178341350891
37.15,0.00750866371456804
37.16,0.00748567859404259
37.17,0.00746282803365961
37.18,0.00744011201066841
37.19,0.00741753049780658
37.2,0.0073950834633707
37.21,0.00737277087123589
37.22,0.00735059268084515
37.23,0.00732854884728817
37.24,0.00730663932130149
37.25,0.00728486404930506
37.26,0.00726322297340087
37.27,0.00724171603143986
37.28,0.00722034315703812
37.29,0.00719910427958637
37.3,0.00717799932429497
37.31,0.00715702821221476
37.32,0.00713619086028783
37.33,0.00711548718132848
37.34,0.00709491708411758
37.35,0.00707448047337178
37.36,0.00705417724980129
37.37,0.00703400731014392
37.38,0.00701397054718866
37.39,0.00699406684980408
37.4,0.0069742961029724
37.41,0.00695465818781205
37.42,0.00693515298161407
37.43,0.00691578035788454
37.44,0.0068965401863752
37.45,0.00687743233307714
37.46,0.00685845666029228
37.47,0.00683961302668046
37.48,0.00682090128724477
37.49,0.00680232129337144
37.5,0.0067838728929146
37.51,0.00676555593015937
37.52,0.00674737024589767
37.53,0.00672931567747759
37.54,0.00671139205876004
37.55,0.00669359922025159
37.56,0.00667593698907576
37.57,0.00665840518900884
37.58,0.00664100364055387
37.59,0.00662373216092205
37.6,0.00660659056411117
37.61,0.00658957866093179
37.62,0.00657269625901924
37.63,0.00655594316289454
37.64,0.00653931917400574
37.65,0.00652282409072102
37.66,0.00650645770842118
37.67,0.00649021981947984
37.68,0.00647411021334732
37.69,0.00645812867657691
37.7,0.00644227499282113
37.71,0.00642654894295325
37.72,0.00641095030498995
37.73,0.00639547885424263
37.74,0.00638013436327067
37.75,0.00636491660197658
37.76,0.00634982533760509
37.77,0.00633486033479413
37.78,0.00632002135563381
37.79,0.00630530815967068
37.8,0.00629072050395907
37.81,0.00627625814311317
37.82,0.00626192082933352
37.83,0.00624770831246024
37.84,0.00623362033998209
37.85,0.00621965665709323
37.86,0.00620581700677136
37.87,0.00619210112974544
37.88,0.00617850876458326
37.89,0.00616503964771387
37.9,0.00615169351349354
37.91,0.00613847009421642
37.92,0.00612536912017525
37.93,0.00611239031967559
37.94,0.0060995334191084
37.95,0.00608679814299184
37.96,0.00607418421396233
37.97,0.00606169135289603
37.98,0.0060493192788873
