"Freq [GHz]","ReflectanceTM []"
30,0.999309018466158
30.01,0.999297557374998
30.02,0.999286319880814
30.03,0.999275303717308
30.04,0.999264506627702
30.05,0.999253926364802
30.06,0.999243560690988
30.07,0.999233407378304
30.08,0.999223464208433
30.09,0.999213728972745
30.1,0.999204199472338
30.11,0.999194873518037
30.12,0.999185748930469
30.13,0.999176823540047
30.14,0.999168095186999
30.15,0.999159561721422
30.16,0.999151221003294
30.17,0.999143070902485
30.18,0.999135109298806
30.19,0.999127334082033
30.2,0.999119743151899
30.21,0.999112334418137
30.22,0.999105105800524
30.23,0.999098055228857
30.24,0.999091180643045
30.25,0.999084479993041
30.26,0.999077951238938
30.27,0.999071592350957
30.28,0.999065401309444
30.29,0.999059376104956
30.3,0.999053514738213
30.31,0.999047815220159
30.32,0.999042275571944
30.33,0.999036893825003
30.34,0.999031668020987
30.35,0.99902659621185
30.36,0.999021676459825
30.37,0.999016906837468
30.38,0.999012285427672
30.39,0.999007810323633
30.4,0.999003479628925
30.41,0.998999291457486
30.42,0.998995243933644
30.43,0.998991335192103
30.44,0.998987563377984
30.45,0.998983926646811
30.46,0.998980423164565
30.47,0.998977051107629
30.48,0.998973808662875
30.49,0.998970694027598
30.5,0.998967705409587
30.51,0.998964841027112
30.52,0.998962099108904
30.53,0.998959477894213
30.54,0.998956975632788
30.55,0.998954590584868
30.56,0.998952321021216
30.57,0.99895016522315
30.58,0.998948121482458
30.59,0.998946188101505
30.6,0.998944363393172
30.61,0.998942645680902
30.62,0.998941033298648
30.63,0.998939524590945
30.64,0.998938117912869
30.65,0.998936811630041
30.66,0.998935604118651
30.67,0.998934493765433
30.68,0.998933478967699
30.69,0.998932558133312
30.7,0.998931729680675
30.71,0.998930992038773
30.72,0.998930343647141
30.73,0.998929782955879
30.74,0.998929308425634
30.75,0.998928918527594
30.76,0.998928611743531
30.77,0.998928386565727
30.78,0.998928241497039
30.79,0.998928175050854
30.8,0.998928185751083
30.81,0.998928272132192
30.82,0.998928432739145
30.83,0.998928666127458
30.84,0.998928970863137
30.85,0.998929345522703
30.86,0.998929788693197
30.87,0.998930298972116
30.88,0.998930874967485
30.89,0.998931515297774
30.9,0.99893221859195
30.91,0.998932983489419
30.92,0.998933808640055
30.93,0.99893469270417
30.94,0.998935634352496
30.95,0.998936632266188
30.96,0.998937685136833
30.97,0.998938791666398
30.98,0.998939950567245
30.99,0.998941160562083
31,0.998942420384035
31.01,0.998943728776532
31.02,0.998945084493338
31.03,0.99894648629858
31.04,0.998947932966643
31.05,0.998949423282244
31.06,0.998950956040354
31.07,0.998952530046227
31.08,0.998954144115339
31.09,0.998955797073408
31.1,0.998957487756387
31.11,0.998959215010392
31.12,0.998960977691741
31.13,0.998962774666911
31.14,0.998964604812527
31.15,0.998966467015336
31.16,0.998968360172182
31.17,0.998970283190036
31.18,0.998972234985881
31.19,0.998974214486806
31.2,0.998976220629889
31.21,0.998978252362235
31.22,0.998980308640957
31.23,0.998982388433088
31.24,0.998984490715635
31.25,0.998986614475543
31.26,0.998988758709628
31.27,0.998990922424609
31.28,0.998993104637043
31.29,0.998995304373334
31.3,0.998997520669689
31.31,0.998999752572112
31.32,0.99900199913635
31.33,0.999004259427898
31.34,0.999006532521965
31.35,0.999008817503439
31.36,0.99901111346688
31.37,0.999013419516477
31.38,0.999015734766041
31.39,0.999018058338942
31.4,0.999020389368144
31.41,0.999022726996092
31.42,0.999025070374786
31.43,0.999027418665659
31.44,0.999029771039617
31.45,0.999032126676974
31.46,0.999034484767451
31.47,0.999036844510105
31.48,0.999039205113333
31.49,0.999041565794847
31.5,0.999043925781649
31.51,0.999046284309933
31.52,0.999048640625155
31.53,0.999050993981947
31.54,0.999053343644067
31.55,0.999055688884427
31.56,0.999058028985011
31.57,0.999060363236874
31.58,0.999062690940097
31.59,0.999065011403739
31.6,0.999067323945859
31.61,0.999069627893406
31.62,0.999071922582265
31.63,0.999074207357162
31.64,0.999076481571664
31.65,0.999078744588136
31.66,0.999080995777719
31.67,0.999083234520257
31.68,0.999085460204322
31.69,0.999087672227139
31.7,0.999089869994556
31.71,0.999092052921019
31.72,0.999094220429534
31.73,0.999096371951627
31.74,0.999098506927321
31.75,0.999100624805069
31.76,0.999102725041779
31.77,0.999104807102691
31.78,0.999106870461435
31.79,0.999108914599918
31.8,0.999110939008327
31.81,0.999112943185087
31.82,0.999114926636833
31.83,0.999116888878325
31.84,0.999118829432462
31.85,0.999120747830254
31.86,0.999122643610712
31.87,0.999124516320898
31.88,0.999126365515808
31.89,0.999128190758405
31.9,0.999129991619524
31.91,0.999131767677852
31.92,0.999133518519911
31.93,0.999135243739978
31.94,0.999136942940103
31.95,0.999138615729991
31.96,0.999140261727045
31.97,0.999141880556263
31.98,0.999143471850228
31.99,0.999145035249081
32,0.99914657040044
32.01,0.999148076959383
32.02,0.999149554588435
32.03,0.999151002957476
32.04,0.999152421743716
32.05,0.999153810631684
32.06,0.999155169313172
32.07,0.999156497487164
32.08,0.999157794859824
32.09,0.999159061144458
32.1,0.999160296061463
32.11,0.999161499338285
32.12,0.999162670709371
32.13,0.999163809916143
32.14,0.999164916706959
32.15,0.999165990837038
32.16,0.999167032068447
32.17,0.999168040170076
32.18,0.999169014917534
32.19,0.999169956093169
32.2,0.999170863486
32.21,0.999171736891666
32.22,0.9991725761124
32.23,0.999173380956986
32.24,0.999174151240697
32.25,0.99917488678527
32.26,0.999175587418856
32.27,0.999176252975991
32.28,0.999176883297515
32.29,0.999177478230584
32.3,0.999178037628585
32.31,0.99917856135111
32.32,0.999179049263886
32.33,0.999179501238789
32.34,0.99917991715374
32.35,0.999180296892683
32.36,0.999180640345576
32.37,0.999180947408282
32.38,0.999181217982586
32.39,0.999181451976107
32.4,0.99918164930227
32.41,0.999181809880298
32.42,0.99918193363508
32.43,0.999182020497233
32.44,0.99918207040299
32.45,0.999182083294154
32.46,0.999182059118084
32.47,0.999181997827668
32.48,0.99918189938121
32.49,0.999181763742443
32.5,0.999181590880487
32.51,0.999181380769753
32.52,0.999181133389964
32.53,0.999180848726055
32.54,0.999180526768178
32.55,0.999180167511606
32.56,0.999179770956729
32.57,0.99917933710901
32.58,0.999178865978921
32.59,0.999178357581889
32.6,0.99917781193828
32.61,0.999177229073358
32.62,0.999176609017199
32.63,0.999175951804695
32.64,0.999175257475484
32.65,0.999174526073917
32.66,0.99917375764899
32.67,0.999172952254338
32.68,0.999172109948156
32.69,0.999171230793176
32.7,0.999170314856626
32.71,0.999169362210155
32.72,0.999168372929832
32.73,0.999167347096071
32.74,0.999166284793605
32.75,0.999165186111417
32.76,0.999164051142738
32.77,0.999162879984953
32.78,0.999161672739612
32.79,0.999160429512327
32.8,0.999159150412771
32.81,0.999157835554636
32.82,0.999156485055554
32.83,0.999155099037078
32.84,0.999153677624654
32.85,0.999152220947545
32.86,0.999150729138796
32.87,0.999149202335201
32.88,0.999147640677258
32.89,0.999146044309126
32.9,0.999144413378575
32.91,0.999142748036945
32.92,0.9991410484391
32.93,0.999139314743395
32.94,0.999137547111639
32.95,0.999135745709021
32.96,0.999133910704104
32.97,0.999132042268744
32.98,0.999130140578099
32.99,0.999128205810536
33,0.999126238147603
33.01,0.999124237774019
33.02,0.999122204877579
33.03,0.999120139649161
33.04,0.99911804228264
33.05,0.999115912974887
33.06,0.999113751925697
33.07,0.999111559337746
33.08,0.999109335416591
33.09,0.99910708037057
33.1,0.99910479441081
33.11,0.999102477751139
33.12,0.999100130608098
33.13,0.999097753200859
33.14,0.999095345751198
33.15,0.999092908483443
33.16,0.999090441624456
33.17,0.999087945403579
33.18,0.999085420052584
33.19,0.999082865805656
33.2,0.99908028289931
33.21,0.999077671572414
33.22,0.999075032066094
33.23,0.999072364623709
33.24,0.999069669490842
33.25,0.999066946915187
33.26,0.99906419714661
33.27,0.999061420437019
33.28,0.999058617040368
33.29,0.99905578721262
33.3,0.999052931211677
33.31,0.999050049297391
33.32,0.999047141731473
33.33,0.999044208777488
33.34,0.999041250700791
33.35,0.999038267768526
33.36,0.999035260249541
33.37,0.999032228414387
33.38,0.999029172535261
33.39,0.999026092885971
33.4,0.999022989741891
33.41,0.99901986337996
33.42,0.999016714078577
33.43,0.999013542117639
33.44,0.999010347778447
33.45,0.999007131343671
33.46,0.999003893097381
33.47,0.999000633324908
33.48,0.998997352312888
33.49,0.998994050349198
33.5,0.998990727722895
33.51,0.998987384724218
33.52,0.998984021644538
33.53,0.998980638776316
33.54,0.998977236413079
33.55,0.998973814849347
33.56,0.998970374380669
33.57,0.998966915303508
33.58,0.998963437915283
33.59,0.998959942514252
33.6,0.998956429399557
33.61,0.998952898871115
33.62,0.998949351229644
33.63,0.998945786776597
33.64,0.998942205814146
33.65,0.998938608645124
33.66,0.998934995572991
33.67,0.998931366901847
33.68,0.998927722936344
33.69,0.998924063981667
33.7,0.998920390343528
33.71,0.998916702328091
33.72,0.998913000241974
33.73,0.998909284392189
33.74,0.998905555086138
33.75,0.998901812631558
33.76,0.998898057336486
33.77,0.99889428950924
33.78,0.998890509458409
33.79,0.998886717492759
33.8,0.998882913921262
33.81,0.99887909905304
33.82,0.998875273197321
33.83,0.998871436663427
33.84,0.998867589760749
33.85,0.998863732798705
33.86,0.9988598660867
33.87,0.998855989934104
33.88,0.998852104650235
33.89,0.998848210544299
33.9,0.998844307925409
33.91,0.99884039710251
33.92,0.998836478384341
33.93,0.998832552079479
33.94,0.998828618496223
33.95,0.998824677942617
33.96,0.998820730726409
33.97,0.998816777155027
33.98,0.998812817535517
33.99,0.998808852174581
34,0.998804881378492
34.01,0.998800905453073
34.02,0.998796924703718
34.03,0.998792939435297
34.04,0.998788949952158
34.05,0.998784956558141
34.06,0.998780959556482
34.07,0.998776959249809
34.08,0.998772955940167
34.09,0.998768949928899
34.1,0.998764941516705
34.11,0.998760931003582
34.12,0.99875691868877
34.13,0.998752904870792
34.14,0.998748889847354
34.15,0.998744873915391
34.16,0.998740857370993
34.17,0.998736840509407
34.18,0.998732823624986
34.19,0.998728807011189
34.2,0.99872479096057
34.21,0.998720775764695
34.22,0.998716761714189
34.23,0.998712749098664
34.24,0.998708738206741
34.25,0.998704729325942
34.26,0.998700722742794
34.27,0.998696718742684
34.28,0.998692717609917
34.29,0.998688719627651
34.3,0.998684725077903
34.31,0.998680734241512
34.32,0.998676747398106
34.33,0.998672764826123
34.34,0.998668786802737
34.35,0.998664813603876
34.36,0.99866084550417
34.37,0.998656882776983
34.38,0.998652925694313
34.39,0.998648974526861
34.4,0.998645029543937
34.41,0.998641091013474
34.42,0.998637159202003
34.43,0.99863323437466
34.44,0.998629316795118
34.45,0.998625406725599
34.46,0.998621504426836
34.47,0.998617610158101
34.48,0.998613724177123
34.49,0.998609846740102
34.5,0.998605978101718
34.51,0.998602118515053
34.52,0.998598268231611
34.53,0.998594427501316
34.54,0.998590596572454
34.55,0.998586775691678
34.56,0.998582965104007
34.57,0.998579165052767
34.58,0.998575375779616
34.59,0.998571597524515
34.6,0.998567830525709
34.61,0.998564075019703
34.62,0.998560331241254
34.63,0.998556599423391
34.64,0.998552879797304
34.65,0.99854917259246
34.66,0.998545478036473
34.67,0.998541796355159
34.68,0.998538127772502
34.69,0.998534472510614
34.7,0.998530830789781
34.71,0.998527202828377
34.72,0.998523588842921
34.73,0.998519989048018
34.74,0.998516403656348
34.75,0.998512832878665
34.76,0.998509276923817
34.77,0.998505735998645
34.78,0.998502210308076
34.79,0.998498700055035
34.8,0.998495205440468
34.81,0.998491726663316
34.82,0.998488263920518
34.83,0.998484817406989
34.84,0.998481387315594
34.85,0.99847797383719
34.86,0.998474577160569
34.87,0.998471197472431
34.88,0.99846783495744
34.89,0.998464489798161
34.9,0.998461162175068
34.91,0.998457852266528
34.92,0.998454560248795
34.93,0.998451286296018
34.94,0.998448030580197
34.95,0.998444793271198
34.96,0.998441574536761
34.97,0.998438374542439
34.98,0.998435193451649
34.99,0.998432031425611
35,0.998428888623395
35.01,0.998425765201863
35.02,0.998422661315696
35.03,0.998419577117367
35.04,0.998416512757141
35.05,0.998413468383079
35.06,0.998410444141009
35.07,0.998407440174535
35.08,0.998404456625047
35.09,0.998401493631656
35.1,0.998398551331284
35.11,0.998395629858545
35.12,0.998392729345828
35.13,0.998389849923258
35.14,0.998386991718695
35.15,0.998384154857735
35.16,0.998381339463673
35.17,0.998378545657551
35.18,0.998375773558129
35.19,0.998373023281847
35.2,0.998370294942902
35.21,0.998367588653141
35.22,0.998364904522161
35.23,0.998362242657229
35.24,0.998359603163313
35.25,0.998356986143077
35.26,0.998354391696871
35.27,0.998351819922735
35.28,0.998349270916386
35.29,0.99834674477123
35.3,0.998344241578362
35.31,0.998341761426533
35.32,0.998339304402199
35.33,0.998336870589454
35.34,0.998334460070118
35.35,0.998332072923619
35.36,0.998329709227121
35.37,0.998327369055418
35.38,0.998325052480991
35.39,0.998322759573986
35.4,0.998320490402229
35.41,0.998318245031195
35.42,0.998316023524059
35.43,0.998313825941642
35.44,0.998311652342447
35.45,0.998309502782652
35.46,0.998307377316103
35.47,0.998305275994313
35.48,0.998303198866483
35.49,0.998301145979477
35.5,0.99829911737785
35.51,0.998297113103838
35.52,0.99829513319734
35.53,0.998293177695961
35.54,0.998291246634959
35.55,0.998289340047325
35.56,0.998287457963702
35.57,0.998285600412456
35.58,0.998283767419606
35.59,0.998281959008928
35.6,0.99828017520185
35.61,0.998278416017536
35.62,0.998276681472844
35.63,0.998274971582356
35.64,0.998273286358351
35.65,0.998271625810846
35.66,0.998269989947575
35.67,0.998268378774022
35.68,0.998266792293358
35.69,0.99826523050654
35.7,0.998263693412243
35.71,0.998262181006873
35.72,0.998260693284642
35.73,0.998259230237461
35.74,0.998257791855053
35.75,0.998256378124864
35.76,0.998254989032143
35.77,0.998253624559919
35.78,0.998252284688999
35.79,0.998250969397975
35.8,0.998249678663265
35.81,0.998248412459045
35.82,0.998247170757349
35.83,0.998245953528012
35.84,0.998244760738683
35.85,0.998243592354839
35.86,0.998242448339834
35.87,0.998241328654826
35.88,0.998240233258834
35.89,0.998239162108768
35.9,0.998238115159363
35.91,0.998237092363255
35.92,0.998236093670966
35.93,0.998235119030894
35.94,0.998234168389361
35.95,0.998233241690561
35.96,0.998232338876656
35.97,0.998231459887684
35.98,0.99823060466165
35.99,0.998229773134485
36,0.998228965240072
36.01,0.998228180910262
36.02,0.998227420074897
36.03,0.998226682661745
36.04,0.998225968596606
36.05,0.998225277803272
36.06,0.998224610203528
36.07,0.998223965717199
36.08,0.99822334426211
36.09,0.99822274575416
36.1,0.998222170107258
36.11,0.998221617233398
36.12,0.998221087042638
36.13,0.998220579443106
36.14,0.998220094341026
36.15,0.998219631640713
36.16,0.998219191244622
36.17,0.998218773053301
36.18,0.998218376965445
36.19,0.998218002877882
36.2,0.998217650685609
36.21,0.998217320281793
36.22,0.998217011557763
36.23,0.998216724403053
36.24,0.998216458705383
36.25,0.998216214350721
36.26,0.998215991223221
36.27,0.998215789205285
36.28,0.998215608177584
36.29,0.998215448019026
36.3,0.998215308606821
36.31,0.998215189816443
36.32,0.998215091521666
36.33,0.998215013594585
36.34,0.998214955905627
36.35,0.998214918323519
36.36,0.998214900715394
36.37,0.998214902946697
36.38,0.99821492488128
36.39,0.998214966381378
36.4,0.998215027307609
36.41,0.998215107519036
36.42,0.998215206873128
36.43,0.998215325225811
36.44,0.998215462431447
36.45,0.998215618342892
36.46,0.998215792811473
36.47,0.998215985687001
36.48,0.998216196817832
36.49,0.998216426050813
36.5,0.998216673231337
36.51,0.99821693820336
36.52,0.998217220809411
36.53,0.99821752089057
36.54,0.998217838286528
36.55,0.998218172835599
36.56,0.998218524374704
36.57,0.998218892739408
36.58,0.998219277763935
36.59,0.998219679281168
36.6,0.998220097122659
36.61,0.998220531118688
36.62,0.998220981098229
36.63,0.998221446888967
36.64,0.998221928317377
36.65,0.998222425208637
36.66,0.998222937386717
36.67,0.99822346467438
36.68,0.998224006893191
36.69,0.998224563863515
36.7,0.998225135404571
36.71,0.998225721334416
36.72,0.998226321469959
36.73,0.998226935627008
36.74,0.998227563620249
36.75,0.998228205263261
36.76,0.9982288603686
36.77,0.998229528747719
36.78,0.998230210211032
36.79,0.998230904567929
36.8,0.998231611626805
36.81,0.998232331195017
36.82,0.998233063078985
36.83,0.998233807084133
36.84,0.998234563014957
36.85,0.998235330675001
36.86,0.998236109866894
36.87,0.998236900392382
36.88,0.998237702052298
36.89,0.998238514646624
36.9,0.99823933797447
36.91,0.998240171834143
36.92,0.998241016023093
36.93,0.998241870337982
36.94,0.998242734574669
36.95,0.998243608528261
36.96,0.998244491993095
36.97,0.998245384762763
36.98,0.998246286630154
36.99,0.998247197387418
37,0.998248116826025
37.01,0.998249044736798
37.02,0.998249980909853
37.03,0.998250925134705
37.04,0.998251877200208
37.05,0.998252836894638
37.06,0.998253804005651
37.07,0.998254778320345
37.08,0.998255759625245
37.09,0.998256747706333
37.1,0.998257742349066
37.11,0.99825874333839
37.12,0.998259750458761
37.13,0.998260763494141
37.14,0.998261782228049
37.15,0.998262806443552
37.16,0.998263835923261
37.17,0.998264870449436
37.18,0.998265909803867
37.19,0.998266953768007
37.2,0.998268002122958
37.21,0.998269054649431
37.22,0.998270111127846
37.23,0.998271171338294
37.24,0.998272235060557
37.25,0.99827330207414
37.26,0.998274372158315
37.27,0.998275445092061
37.28,0.998276520654147
37.29,0.998277598623126
37.3,0.998278678777348
37.31,0.99827976089498
37.32,0.998280844754023
37.33,0.998281930132335
37.34,0.998283016807624
37.35,0.998284104557491
37.36,0.998285193159433
37.37,0.99828628239087
37.38,0.998287372029136
37.39,0.99828846185152
37.4,0.998289551635291
37.41,0.998290641157666
37.42,0.99829173019588
37.43,0.998292818527176
37.44,0.998293905928822
37.45,0.998294992178126
37.46,0.998296077052468
37.47,0.99829716032928
37.48,0.998298241786112
37.49,0.99829932120061
37.5,0.998300398350552
37.51,0.998301473013846
37.52,0.99830254496854
37.53,0.998303613992885
37.54,0.998304679865298
37.55,0.998305742364413
37.56,0.998306801269073
37.57,0.998307856358343
37.58,0.998308907411545
37.59,0.998309954208301
37.6,0.998310996528445
37.61,0.998312034152164
37.62,0.998313066859934
37.63,0.998314094432553
37.64,0.998315116651179
37.65,0.998316133297295
37.66,0.998317144152795
37.67,0.99831814899994
37.68,0.998319147621385
37.69,0.99832013980021
37.7,0.998321125319948
37.71,0.998322103964551
37.72,0.998323075518446
37.73,0.998324039766529
37.74,0.998324996494205
37.75,0.998325945487369
37.76,0.998326886532442
37.77,0.998327819416395
37.78,0.998328743926711
37.79,0.998329659851495
37.8,0.998330566979386
37.81,0.998331465099627
37.82,0.998332354002087
37.83,0.998333233477234
37.84,0.998334103316185
37.85,0.99833496331072
37.86,0.998335813253241
37.87,0.998336652936885
37.88,0.998337482155436
37.89,0.998338300703412
37.9,0.998339108376042
37.91,0.998339904969288
37.92,0.998340690279861
37.93,0.998341464105227
37.94,0.998342226243639
37.95,0.998342976494133
37.96,0.998343714656542
37.97,0.998344440531512
37.98,0.998345153920534
37.99,0.998345854625913
38,0.998346542450841
38.01,0.998347217199347
38.02,0.99834787867635
38.03,0.998348526687676
38.04,0.998349161040036
38.05,0.998349781541067
38.06,0.998350387999338
38.07,0.998350980224349
38.08,0.998351558026596
38.09,0.998352121217489
38.1,0.998352669609449
38.11,0.998353203015875
38.12,0.998353721251198
38.13,0.998354224130834
38.14,0.998354711471235
38.15,0.998355183089899
38.16,0.998355638805382
38.17,0.998356078437283
38.18,0.998356501806301
38.19,0.998356908734181
38.2,0.998357299043825
38.21,0.998357672559188
38.22,0.998358029105396
38.23,0.998358368508656
38.24,0.998358690596336
38.25,0.998358995196963
38.26,0.998359282140231
38.27,0.99835955125704
38.28,0.998359802379365
38.29,0.998360035340501
38.3,0.998360249974881
38.31,0.998360446118175
38.32,0.998360623607303
38.33,0.998360782280343
38.34,0.998360921976702
38.35,0.998361042537019
38.36,0.998361143803182
38.37,0.998361225618379
38.38,0.998361287827067
