"Freq [GHz]","ReflectanceTM []"
30,0.999875342239132
30.01,0.999875054353467
30.02,0.99987477261147
30.03,0.999874496895664
30.04,0.999874227089894
30.05,0.999873963079377
30.06,0.999873704750614
30.07,0.999873451991471
30.08,0.999873204691105
30.09,0.999872962739965
30.1,0.999872726029811
30.11,0.999872494453663
30.12,0.999872267905842
30.13,0.99987204628192
30.14,0.999871829478706
30.15,0.999871617394275
30.16,0.999871409927935
30.17,0.99987120698021
30.18,0.999871008452848
30.19,0.999870814248823
30.2,0.99987062427228
30.21,0.999870438428556
30.22,0.999870256624185
30.23,0.999870078766868
30.24,0.999869904765457
30.25,0.999869734529975
30.26,0.999869567971585
30.27,0.999869405002578
30.28,0.999869245536385
30.29,0.999869089487534
30.3,0.999868936771687
30.31,0.999868787305594
30.32,0.999868641007105
30.33,0.999868497795132
30.34,0.999868357589698
30.35,0.999868220311864
30.36,0.999868085883758
30.37,0.999867954228547
30.38,0.999867825270465
30.39,0.999867698934741
30.4,0.999867575147663
30.41,0.99986745383651
30.42,0.999867334929574
30.43,0.999867218356167
30.44,0.999867104046542
30.45,0.999866991931977
30.46,0.999866881944721
30.47,0.999866774017962
30.48,0.999866668085871
30.49,0.999866564083556
30.5,0.999866461947064
30.51,0.999866361613378
30.52,0.999866263020411
30.53,0.999866166106994
30.54,0.999866070812852
30.55,0.999865977078632
30.56,0.999865884845849
30.57,0.999865794056926
30.58,0.999865704655148
30.59,0.999865616584697
30.6,0.999865529790567
30.61,0.99986544421866
30.62,0.999865359815683
30.63,0.999865276529197
30.64,0.999865194307624
30.65,0.999865113100151
30.66,0.999865032856823
30.67,0.999864953528486
30.68,0.999864875066788
30.69,0.999864797424162
30.7,0.999864720553823
30.71,0.999864644409777
30.72,0.999864568946818
30.73,0.999864494120451
30.74,0.99986441988701
30.75,0.999864346203525
30.76,0.999864273027781
30.77,0.999864200318307
30.78,0.999864128034348
30.79,0.999864056135892
30.8,0.999863984583627
30.81,0.999863913338937
30.82,0.999863842363923
30.83,0.999863771621393
30.84,0.999863701074802
30.85,0.999863630688319
30.86,0.999863560426777
30.87,0.999863490255654
30.88,0.999863420141125
30.89,0.999863350049988
30.9,0.999863279949697
30.91,0.999863209808354
30.92,0.999863139594675
30.93,0.999863069278017
30.94,0.999862998828354
30.95,0.999862928216262
30.96,0.999862857412955
30.97,0.999862786390196
30.98,0.999862715120402
30.99,0.999862643576518
31,0.999862571732124
31.01,0.999862499561326
31.02,0.99986242703885
31.03,0.999862354139924
31.04,0.999862280840394
31.05,0.999862207116623
31.06,0.999862132945505
31.07,0.99986205830451
31.08,0.999861983171607
31.09,0.999861907525316
31.1,0.99986183134465
31.11,0.999861754609161
31.12,0.999861677298885
31.13,0.999861599394398
31.14,0.999861520876721
31.15,0.999861441727418
31.16,0.9998613619285
31.17,0.999861281462466
31.18,0.999861200312306
31.19,0.999861118461466
31.2,0.999861035893835
31.21,0.999860952593789
31.22,0.999860868546149
31.23,0.999860783736176
31.24,0.999860698149553
31.25,0.999860611772429
31.26,0.999860524591374
31.27,0.999860436593366
31.28,0.999860347765827
31.29,0.999860258096566
31.3,0.999860167573808
31.31,0.999860076186213
31.32,0.99985998392278
31.33,0.999859890772939
31.34,0.99985979672652
31.35,0.999859701773695
31.36,0.999859605905039
31.37,0.999859509111497
31.38,0.999859411384378
31.39,0.99985931271534
31.4,0.999859213096435
31.41,0.999859112520034
31.42,0.999859010978864
31.43,0.999858908466008
31.44,0.999858804974858
31.45,0.999858700499172
31.46,0.999858595033017
31.47,0.99985848857079
31.48,0.9998583811072
31.49,0.999858272637291
31.5,0.999858163156393
31.51,0.99985805266015
31.52,0.999857941144527
31.53,0.999857828605742
31.54,0.999857715040347
31.55,0.999857600445162
31.56,0.99985748481729
31.57,0.999857368154124
31.58,0.99985725045331
31.59,0.999857131712796
31.6,0.999857011930767
31.61,0.999856891105673
31.62,0.999856769236264
31.63,0.999856646321468
31.64,0.999856522360529
31.65,0.99985639735291
31.66,0.999856271298315
31.67,0.999856144196671
31.68,0.999856016048182
31.69,0.999855886853234
31.7,0.999855756612468
31.71,0.999855625326727
31.72,0.999855492997088
31.73,0.999855359624833
31.74,0.999855225211465
31.75,0.999855089758656
31.76,0.999854953268348
31.77,0.999854815742617
31.78,0.99985467718376
31.79,0.999854537594268
31.8,0.999854396976825
31.81,0.999854255334277
31.82,0.999854112669683
31.83,0.999853968986232
31.84,0.999853824287345
31.85,0.99985367857657
31.86,0.99985353185763
31.87,0.999853384134439
31.88,0.999853235411017
31.89,0.999853085691586
31.9,0.999852934980525
31.91,0.999852783282321
31.92,0.999852630601645
31.93,0.999852476943296
31.94,0.999852322312216
31.95,0.999852166713485
31.96,0.999852010152319
31.97,0.999851852634062
31.98,0.999851694164181
31.99,0.999851534748276
32,0.999851374392079
32.01,0.999851213101409
32.02,0.999851050882228
32.03,0.999850887740612
32.04,0.999850723682728
32.05,0.99985055871485
32.06,0.999850392843391
32.07,0.999850226074831
32.08,0.999850058415744
32.09,0.999849889872828
32.1,0.999849720452865
32.11,0.999849550162718
32.12,0.999849379009342
32.13,0.999849206999776
32.14,0.99984903414116
32.15,0.999848860440672
32.16,0.999848685905603
32.17,0.999848510543324
32.18,0.99984833436125
32.19,0.999848157366873
32.2,0.99984797956777
32.21,0.999847800971564
32.22,0.999847621585958
32.23,0.999847441418693
32.24,0.999847260477587
32.25,0.999847078770507
32.26,0.999846896305361
32.27,0.999846713090134
32.28,0.999846529132838
32.29,0.999846344441526
32.3,0.99984615902433
32.31,0.999845972889391
32.32,0.99984578604489
32.33,0.999845598499072
32.34,0.999845410260188
32.35,0.999845221336542
32.36,0.999845031736463
32.37,0.999844841468307
32.38,0.999844650540464
32.39,0.999844458961334
32.4,0.999844266739372
32.41,0.999844073883017
32.42,0.999843880400739
32.43,0.999843686301053
32.44,0.999843491592461
32.45,0.999843296283477
32.46,0.99984310038265
32.47,0.999842903898513
32.48,0.99984270683964
32.49,0.999842509214565
32.5,0.999842311031881
32.51,0.999842112300142
32.52,0.999841913027928
32.53,0.999841713223813
32.54,0.999841512896367
32.55,0.999841312054148
32.56,0.999841110705739
32.57,0.999840908859678
32.58,0.999840706524526
32.59,0.999840503708824
32.6,0.999840300421092
32.61,0.999840096669854
32.62,0.999839892463612
32.63,0.999839687810863
32.64,0.999839482720063
32.65,0.999839277199679
32.66,0.999839071258147
32.67,0.999838864903862
32.68,0.999838658145246
32.69,0.999838450990652
32.7,0.999838243448414
32.71,0.999838035526868
32.72,0.999837827234299
32.73,0.999837618578973
32.74,0.999837409569126
32.75,0.999837200212953
32.76,0.999836990518637
32.77,0.999836780494311
32.78,0.999836570148072
32.79,0.999836359488007
32.8,0.999836148522126
32.81,0.999835937258448
32.82,0.999835725704912
32.83,0.999835513869449
32.84,0.99983530175994
32.85,0.999835089384204
32.86,0.999834876750047
32.87,0.999834663865211
32.88,0.999834450737408
32.89,0.999834237374312
32.9,0.999834023783515
32.91,0.999833809972595
32.92,0.999833595949075
32.93,0.999833381720423
32.94,0.999833167294066
32.95,0.99983295267737
32.96,0.999832737877648
32.97,0.99983252290219
32.98,0.999832307758195
32.99,0.999832092452834
33,0.99983187699321
33.01,0.999831661386385
33.02,0.999831445639349
33.03,0.999831229759047
33.04,0.99983101375237
33.05,0.999830797626127
33.06,0.999830581387113
33.07,0.999830365042021
33.08,0.999830148597516
33.09,0.999829932060177
33.1,0.999829715436553
33.11,0.999829498733092
33.12,0.999829281956212
33.13,0.999829065112273
33.14,0.999828848207542
33.15,0.999828631248251
33.16,0.999828414240549
33.17,0.999828197190526
33.18,0.999827980104223
33.19,0.999827762987614
33.2,0.99982754584657
33.21,0.999827328686942
33.22,0.999827111514505
33.23,0.999826894334941
33.24,0.999826677153904
33.25,0.999826459976946
33.26,0.999826242809568
33.27,0.999826025657216
33.28,0.999825808525234
33.29,0.999825591418934
33.3,0.999825374343539
33.31,0.999825157304212
33.32,0.999824940306027
33.33,0.999824723354014
33.34,0.999824506453127
33.35,0.999824289608233
33.36,0.999824072824161
33.37,0.999823856105623
33.38,0.999823639457323
33.39,0.999823422883839
33.4,0.9998232063897
33.41,0.999822989979368
33.42,0.999822773657235
33.43,0.99982255742761
33.44,0.999822341294735
33.45,0.999822125262779
33.46,0.99982190933586
33.47,0.999821693518002
33.48,0.999821477813151
33.49,0.999821262225216
33.5,0.999821046757995
33.51,0.999820831415232
33.52,0.99982061620062
33.53,0.999820401117737
33.54,0.99982018617013
33.55,0.999819971361233
33.56,0.999819756694451
33.57,0.999819542173098
33.58,0.999819327800409
33.59,0.999819113579561
33.6,0.999818899513662
33.61,0.999818685605724
33.62,0.99981847185871
33.63,0.999818258275506
33.64,0.999818044858938
33.65,0.999817831611745
33.66,0.999817618536586
33.67,0.999817405636084
33.68,0.999817192912765
33.69,0.999816980369082
33.7,0.99981676800744
33.71,0.999816555830153
33.72,0.999816343839475
33.73,0.999816132037589
33.74,0.999815920426606
33.75,0.999815709008576
33.76,0.999815497785463
33.77,0.999815286759168
33.78,0.999815075931545
33.79,0.999814865304344
33.8,0.999814654879283
33.81,0.999814444657983
33.82,0.999814234642004
33.83,0.999814024832847
33.84,0.999813815231937
33.85,0.999813605840654
33.86,0.999813396660271
33.87,0.999813187692028
33.88,0.999812978937097
33.89,0.999812770396555
33.9,0.999812562071437
33.91,0.999812353962735
33.92,0.999812146071313
33.93,0.999811938398038
33.94,0.999811730943673
33.95,0.999811523708919
33.96,0.999811316694432
33.97,0.999811109900803
33.98,0.999810903328523
33.99,0.999810696978074
34,0.999810490849848
34.01,0.999810284944161
34.02,0.999810079261308
34.03,0.999809873801489
34.04,0.99980966856485
34.05,0.99980946355148
34.06,0.999809258761425
34.07,0.999809054194629
34.08,0.999808849851038
34.09,0.999808645730481
34.1,0.999808441832753
34.11,0.999808238157608
34.12,0.99980803470471
34.13,0.999807831473686
34.14,0.999807628464109
34.15,0.999807425675486
34.16,0.999807223107258
34.17,0.999807020758857
34.18,0.999806818629596
34.19,0.999806616718785
34.2,0.999806415025649
34.21,0.999806213549379
34.22,0.999806012289116
34.23,0.999805811243907
34.24,0.999805610412814
34.25,0.999805409794784
34.26,0.999805209388759
34.27,0.999805009193617
34.28,0.999804809208166
34.29,0.999804609431179
34.3,0.999804409861394
34.31,0.999804210497479
34.32,0.999804011338074
34.33,0.999803812381743
34.34,0.99980361362703
34.35,0.99980341507242
34.36,0.99980321671636
34.37,0.999803018557243
34.38,0.999802820593405
34.39,0.999802622823174
34.4,0.999802425244807
34.41,0.999802227856513
34.42,0.999802030656467
34.43,0.99980183364282
34.44,0.999801636813646
34.45,0.99980144016701
34.46,0.999801243700898
34.47,0.999801047413305
34.48,0.999800851302152
34.49,0.999800655365311
34.5,0.999800459600659
34.51,0.99980026400599
34.52,0.999800068579092
34.53,0.999799873317699
34.54,0.999799678219511
34.55,0.999799483282189
34.56,0.999799288503373
34.57,0.999799093880639
34.58,0.99979889941157
34.59,0.999798705093676
34.6,0.99979851092446
34.61,0.999798316901372
34.62,0.99979812302185
34.63,0.999797929283287
34.64,0.999797735683044
34.65,0.999797542218456
34.66,0.999797348886837
34.67,0.999797155685442
34.68,0.999796962611537
34.69,0.999796769662321
34.7,0.999796576834998
34.71,0.999796384126716
34.72,0.999796191534617
34.73,0.999795999055815
34.74,0.999795806687389
34.75,0.99979561442638
34.76,0.999795422269845
34.77,0.999795230214784
34.78,0.999795038258179
34.79,0.99979484639699
34.8,0.999794654628153
34.81,0.9997944629486
34.82,0.999794271355217
34.83,0.999794079844881
34.84,0.999793888414442
34.85,0.999793697060738
34.86,0.999793505780592
34.87,0.999793314570792
34.88,0.999793123428117
34.89,0.999792932349336
34.9,0.999792741331181
34.91,0.999792550370384
34.92,0.999792359463658
34.93,0.999792168607695
34.94,0.999791977799185
34.95,0.999791787034781
34.96,0.999791596311139
34.97,0.999791405624904
34.98,0.999791214972699
34.99,0.999791024351124
35,0.999790833756802
35.01,0.999790643186307
35.02,0.999790452636227
35.03,0.999790262103125
35.04,0.999790071583561
35.05,0.999789881074087
35.06,0.999789690571245
35.07,0.999789500071556
35.08,0.999789309571555
35.09,0.999789119067755
35.1,0.99978892855668
35.11,0.999788738034819
35.12,0.999788547498671
35.13,0.999788356944734
35.14,0.999788166369489
35.15,0.999787975769438
35.16,0.999787785141038
35.17,0.99978759448078
35.18,0.999787403785141
35.19,0.999787213050575
35.2,0.999787022273575
35.21,0.999786831450587
35.22,0.999786640578094
35.23,0.999786449652551
35.24,0.999786258670435
35.25,0.999786067628214
35.26,0.999785876522344
35.27,0.999785685349297
35.28,0.999785494105557
35.29,0.999785302787575
35.3,0.999785111391851
35.31,0.999784919914845
35.32,0.999784728353055
35.33,0.999784536702965
35.34,0.999784344961067
35.35,0.999784153123841
35.36,0.99978396118781
35.37,0.999783769149477
35.38,0.999783577005347
35.39,0.999783384751948
35.4,0.999783192385811
35.41,0.999782999903457
35.42,0.999782807301447
35.43,0.999782614576321
35.44,0.999782421724638
35.45,0.99978222874298
35.46,0.999782035627917
35.47,0.999781842376035
35.48,0.999781648983941
35.49,0.999781455448235
35.5,0.999781261765544
35.51,0.999781067932508
35.52,0.999780873945759
35.53,0.999780679801971
35.54,0.999780485497787
35.55,0.999780291029918
35.56,0.999780096395038
35.57,0.999779901589883
35.58,0.999779706611144
35.59,0.999779511455586
35.6,0.999779316119951
35.61,0.999779120601019
35.62,0.999778924895548
35.63,0.999778729000369
35.64,0.99977853291228
35.65,0.99977833662812
35.66,0.999778140144732
35.67,0.999777943459006
35.68,0.999777746567797
35.69,0.999777549468029
35.7,0.999777352156621
35.71,0.999777154630491
35.72,0.99977695688663
35.73,0.999776758921992
35.74,0.999776560733594
35.75,0.999776362318436
35.76,0.999776163673558
35.77,0.999775964796023
35.78,0.999775765682912
35.79,0.999775566331314
35.8,0.999775366738365
35.81,0.999775166901186
35.82,0.999774966816955
35.83,0.999774766482864
35.84,0.99977456589611
35.85,0.999774365053919
35.86,0.999774163953562
35.87,0.99977396259231
35.88,0.999773760967449
35.89,0.999773559076331
35.9,0.999773356916281
35.91,0.999773154484672
35.92,0.999772951778917
35.93,0.999772748796418
35.94,0.999772545534648
35.95,0.99977234199104
35.96,0.999772138163122
35.97,0.999771934048402
35.98,0.999771729644434
35.99,0.999771524948787
36,0.999771319959057
36.01,0.999771114672869
36.02,0.999770909087903
36.03,0.999770703201799
36.04,0.999770497012289
36.05,0.999770290517094
36.06,0.999770083713986
36.07,0.999769876600743
36.08,0.999769669175181
36.09,0.999769461435159
36.1,0.999769253378528
36.11,0.999769045003196
36.12,0.9997688363071
36.13,0.999768627288187
36.14,0.999768417944445
36.15,0.999768208273878
36.16,0.999767998274548
36.17,0.99976778794452
36.18,0.999767577281892
36.19,0.999767366284788
36.2,0.99976715495139
36.21,0.999766943279866
36.22,0.999766731268447
36.23,0.999766518915381
36.24,0.999766306218934
36.25,0.999766093177446
36.26,0.999765879789233
36.27,0.999765666052664
36.28,0.999765451966143
36.29,0.999765237528108
36.3,0.999765022737017
36.31,0.999764807591363
36.32,0.999764592089663
36.33,0.99976437623047
36.34,0.999764160012381
36.35,0.999763943433985
36.36,0.999763726493966
36.37,0.999763509190969
36.38,0.999763291523717
36.39,0.999763073490961
36.4,0.999762855091446
36.41,0.999762636323996
36.42,0.99976241718744
36.43,0.999762197680639
36.44,0.999761977802487
36.45,0.999761757551918
36.46,0.999761536927897
36.47,0.999761315929396
36.48,0.99976109455546
36.49,0.999760872805143
36.5,0.999760650677513
36.51,0.999760428171697
36.52,0.99976020528685
36.53,0.999759982022159
36.54,0.999759758376813
36.55,0.999759534350073
36.56,0.999759309941214
36.57,0.999759085149541
36.58,0.999758859974401
36.59,0.999758634415159
36.6,0.999758408471213
36.61,0.999758182142008
36.62,0.999757955427006
36.63,0.999757728325689
36.64,0.999757500837614
36.65,0.99975727296233
36.66,0.99975704469942
36.67,0.99975681604851
36.68,0.999756587009261
36.69,0.999756357581352
36.7,0.999756127764509
36.71,0.999755897558481
36.72,0.999755666963041
36.73,0.999755435978001
36.74,0.999755204603208
36.75,0.999754972838511
36.76,0.999754740683847
36.77,0.999754508139137
36.78,0.999754275204344
36.79,0.999754041879458
36.8,0.999753808164527
36.81,0.999753574059579
36.82,0.999753339564724
36.83,0.999753104680065
36.84,0.999752869405763
36.85,0.99975263374199
36.86,0.999752397688952
36.87,0.999752161246892
36.88,0.999751924416075
36.89,0.99975168719679
36.9,0.999751449589378
36.91,0.999751211594193
36.92,0.999750973211618
36.93,0.999750734442071
36.94,0.999750495285982
36.95,0.999750255743849
36.96,0.999750015816161
36.97,0.999749775503445
36.98,0.999749534806275
36.99,0.999749293725228
37,0.999749052260914
37.01,0.999748810414
37.02,0.999748568185144
37.03,0.999748325575045
37.04,0.999748082584439
37.05,0.999747839214082
37.06,0.999747595464752
37.07,0.999747351337266
37.08,0.99974710683246
37.09,0.999746861951197
37.1,0.999746616694366
37.11,0.999746371062885
37.12,0.999746125057718
37.13,0.999745878679815
37.14,0.999745631930182
37.15,0.999745384809844
37.16,0.999745137319846
37.17,0.999744889461277
37.18,0.999744641235221
37.19,0.999744392642801
37.2,0.999744143685188
37.21,0.999743894363539
37.22,0.999743644679066
37.23,0.999743394632993
37.24,0.999743144226564
37.25,0.999742893461045
37.26,0.999742642337751
37.27,0.999742390857999
37.28,0.999742139023121
37.29,0.999741886834495
37.3,0.999741634293511
37.31,0.999741381401584
37.32,0.999741128160144
37.33,0.999740874570662
37.34,0.999740620634611
37.35,0.999740366353493
37.36,0.999740111728833
37.37,0.999739856762183
37.38,0.999739601455112
37.39,0.999739345809198
37.4,0.999739089826069
37.41,0.99973883350734
37.42,0.999738576854671
37.43,0.999738319869729
37.44,0.999738062554219
37.45,0.999737804909835
37.46,0.999737546938321
37.47,0.999737288641413
37.48,0.999737030020891
37.49,0.999736771078543
37.5,0.999736511816183
37.51,0.999736252235632
37.52,0.999735992338723
37.53,0.999735732127326
37.54,0.999735471603318
37.55,0.999735210768602
37.56,0.999734949625098
37.57,0.999734688174716
37.58,0.999734426419404
37.59,0.999734164361161
37.6,0.999733902001925
37.61,0.999733639343715
37.62,0.999733376388537
37.63,0.999733113138419
37.64,0.999732849595408
37.65,0.999732585761546
37.66,0.999732321638918
37.67,0.999732057229617
37.68,0.999731792535729
37.69,0.999731527559363
37.7,0.999731262302669
37.71,0.999730996767776
37.72,0.999730730956842
37.73,0.999730464872024
37.74,0.999730198515517
37.75,0.999729931889503
37.76,0.999729664996188
37.77,0.999729397837798
37.78,0.999729130416535
37.79,0.999728862734669
37.8,0.999728594794431
37.81,0.999728326598084
37.82,0.999728058147908
37.83,0.999727789446172
37.84,0.999727520495172
37.85,0.999727251297214
37.86,0.999726981854597
37.87,0.999726712169652
37.88,0.999726442244697
37.89,0.999726172082074
37.9,0.999725901684128
37.91,0.999725631053212
37.92,0.999725360191686
37.93,0.999725089101915
37.94,0.999724817786279
37.95,0.999724546247162
37.96,0.999724274486947
37.97,0.999724002508028
37.98,0.999723730312811
37.99,0.99972345790371
38,0.999723185283131
38.01,0.999722912453484
38.02,0.999722639417201
38.03,0.999722366176717
38.04,0.999722092734456
38.05,0.999721819092854
38.06,0.999721545254355
38.07,0.999721271221389
38.08,0.999720996996435
38.09,0.999720722581916
38.1,0.999720447980297
38.11,0.999720173194023
38.12,0.999719898225572
38.13,0.999719623077399
38.14,0.999719347751953
38.15,0.999719072251712
38.16,0.999718796579132
38.17,0.999718520736678
38.18,0.999718244726838
38.19,0.999717968552038
38.2,0.999717692214787
38.21,0.999717415717527
38.22,0.999717139062757
38.23,0.999716862252901
38.24,0.999716585290441
38.25,0.999716308177837
38.26,0.999716030917557
38.27,0.999715753512093
38.28,0.99971547596384
38.29,0.999715198275298
38.3,0.999714920448905
38.31,0.999714642487118
38.32,0.999714364392411
38.33,0.999714086167176
38.34,0.999713807813887
38.35,0.999713529334982
38.36,0.999713250732888
38.37,0.999712972010044
38.38,0.999712693168865
38.39,0.999712414211764
